q_A^-1,intensity,sigma,intensity_fit
2.628799999999998954e-04,1.501002927910997532e+06,1.458388497563881101e+05,1.883607112730748020e+06
2.675438070964800586e-04,1.537116129363369662e+06,1.447840572664073843e+05,1.890497960990680847e+06
2.722903557352346284e-04,1.573066290341198677e+06,1.436916664500729821e+05,1.897588817443208303e+06
2.771211138506526656e-04,1.608797228344271891e+06,1.425614983766299847e+05,1.904881868152407464e+06
2.820375754200420289e-04,1.644251485365300905e+06,1.413934436340645188e+05,1.912378845567264594e+06
2.870412609256645163e-04,1.679370447092792252e+06,1.401874648529249534e+05,1.920080956095570466e+06
2.921337178249632373e-04,1.714094470547162928e+06,1.389435990348691121e+05,1.927988799501886591e+06
2.973165210291369332e-04,1.748363019956982229e+06,1.376619596694537904e+05,1.936102279374121223e+06
3.025912733902008352e-04,1.782114810634158552e+06,1.363427386232659337e+05,1.944420503861332778e+06
3.079596061966908367e-04,1.815287960558109451e+06,1.349862077861419530e+05,1.952941675848427694e+06
3.134231796781628216e-04,1.847820149329271633e+06,1.335927204600303958e+05,1.961662971703653689e+06
3.189836835186387210e-04,1.879648784102336969e+06,1.321627124769518268e+05,1.970580407715313137e+06
3.246428373791666985e-04,1.910711172059478238e+06,1.306967030334225710e+05,1.979688693328716792e+06
3.304023914296471982e-04,1.940944698933736421e+06,1.291952952299400349e+05,1.988981070307594724e+06
3.362641268900991407e-04,1.970287013043285115e+06,1.276591763051710732e+05,1.998449136981518008e+06
3.422298565815239113e-04,1.998676214248465840e+06,1.260891175558754185e+05,2.008082656808947213e+06
3.483014254865459238e-04,2.026051047196003143e+06,1.244859739349194424e+05,2.017869350592177827e+06
3.544807113199996006e-04,2.052351098168623168e+06,1.228506833212339698e+05,2.027794671834667679e+06
3.607696251096353208e-04,2.077516994814028498e+06,1.211842654570961895e+05,2.037841564943682868e+06
3.671701117871337995e-04,2.101490607985306997e+06,1.194878205497632443e+05,2.047990206263779197e+06
3.736841507895997147e-04,2.124215254885222763e+06,1.177625275361391832e+05,2.058217728292669635e+06
3.803137566717306600e-04,2.145635902670489158e+06,1.160096420109384489e+05,2.068497927895372035e+06
3.870609797288466049e-04,2.165699371638952289e+06,1.142304938206334336e+05,2.078800959910794627e+06
3.939279066309686757e-04,2.184354537093112245e+06,1.124264843272540893e+05,2.089093018253487069e+06
4.009166610681532024e-04,2.201552528948070481e+06,1.105990833480270521e+05,2.099336007468520664e+06
4.080294044072686516e-04,2.217246928130878601e+06,1.087498257787074981e+05,2.109487208714470267e+06
4.152683363604304980e-04,2.231393958802069537e+06,1.068803079103550699e+05,2.119498945341057610e+06
4.226356956652892443e-04,2.243952675418787636e+06,1.049921834512615751e+05,2.129318254602768924e+06
4.301337607773916827e-04,2.254885143653025385e+06,1.030871592673651467e+05,2.138886573609428015e+06
4.377648505748250288e-04,2.264156614178106189e+06,1.011669908566536469e+05,2.148139449351947755e+06
4.455313250753588166e-04,2.271735688341993373e+06,9.923347757450734207e+04,2.157006284535492770e+06
4.534355861663153810e-04,2.277594474757474381e+06,9.728845762882624695e+04,2.165410132965863217e+06
4.614800783473826246e-04,2.281708735856948886e+06,9.533380286522829556e+04,2.173267560308977962e+06
4.696672894866124712e-04,2.284058023483538069e+06,9.337141336435271660e+04,2.180488588093477301e+06
4.779997515898240165e-04,2.284625802620664239e+06,9.140321187436980836e+04,2.186976740737615153e+06
4.864800415836623669e-04,2.283399562399086542e+06,8.943113810330026899e+04,2.192629217005889397e+06
4.951107821125495237e-04,2.280370913563737646e+06,8.745714289679570356e+04,2.197337208454309497e+06
5.038946423497687099e-04,2.275535671632477548e+06,8.548318232777460071e+04,2.200986387888494879e+06
5.128343388229472275e-04,2.268893925034896471e+06,8.351121172545733862e+04,2.203457590388387907e+06
5.219326362541750136e-04,2.260450087581599597e+06,8.154317967141643749e+04,2.204627707780501805e+06
5.311923484150342292e-04,2.250212934682529420e+06,7.958102199115356780e+04,2.204370814293225762e+06
5.406163389967977035e-04,2.238195622806853615e+06,7.762665576951490948e+04,2.202559536262501962e+06
5.502075224960606718e-04,2.224415691756174900e+06,7.568197341839387082e+04,2.199066671965099871e+06
5.599688651160921425e-04,2.208895049407140817e+06,7.374883682490770298e+04,2.193767058833673596e+06
5.699033856841702241e-04,2.191659938668495975e+06,7.182907160784883308e+04,2.186539674471449107e+06
5.800141565851962052e-04,2.172740886490597855e+06,6.992446150949102594e+04,2.177269945226854645e+06
5.903043047118737259e-04,2.152172634862114675e+06,6.803674294908632874e+04,2.165852222012487240e+06
6.007770124317377523e-04,2.129994053828298580e+06,6.616759976343013113e+04,2.152192368196523283e+06
6.114355185713500488e-04,2.106248036667385604e+06,6.431865815846984333e+04,2.136210389635768719e+06
6.222831194179451013e-04,2.080981377465471625e+06,6.249148189526401256e+04,2.117843023351231590e+06
6.333231697388565229e-04,2.054244631435246672e+06,6.068756773137583514e+04,2.097046190218175063e+06
6.445590838190193858e-04,2.026091958429231541e+06,5.890834113797184546e+04,2.073797209661526373e+06
6.559943365168885952e-04,1.996580950203042477e+06,5.715515231125327409e+04,2.048096671951245749e+06
6.676324643390821930e-04,1.965772442087865900e+06,5.542927249504296924e+04,2.019969867293423042e+06
6.794770665340949109e-04,1.933730309833106585e+06,5.373189063005569915e+04,1.989467681140122470e+06
6.915318062054173157e-04,1.900521252478983719e+06,5.206411034406858380e+04,1.956666882098555099e+06
7.038004114443945905e-04,1.866214562214263016e+06,5.042694729543159337e+04,1.921669751990555786e+06
7.162866764831956386e-04,1.830881882265100954e+06,4.882132688146524015e+04,1.884603035827756859e+06
7.289944628682249296e-04,1.794596953946847934e+06,4.724808232189603586e+04,1.845616220960780978e+06
7.419277006543606749e-04,1.757435354090267792e+06,4.570795312687630212e+04,1.804879187209286261e+06
7.550903896203792903e-04,1.719474224126767600e+06,4.420158395767855836e+04,1.762579300920799142e+06
7.684866005059365086e-04,1.680791992182807531e+06,4.272952388834256271e+04,1.718918053199246991e+06
7.821204762705039103e-04,1.641468089591232594e+06,4.129222607516747667e+04,1.674107363846700173e+06
7.959962333746297206e-04,1.601582663276039995e+06,3.989004784123403078e+04,1.628365686274331529e+06
8.101181630839421549e-04,1.561216285506739281e+06,3.852325118232501700e+04,1.581914053878645180e+06
8.244906327962760878e-04,1.520449662548167631e+06,3.719200370043935254e+04,1.534972205064621288e+06
8.391180873923520609e-04,1.479363343751278706e+06,3.589637997050661215e+04,1.487754912921307143e+06
8.540050506104184371e-04,1.438037432639523875e+06,3.463636334536709910e+04,1.440468627868301934e+06
8.691561264452727070e-04,1.396551301543571521e+06,3.341184820309422503e+04,1.393308519208902726e+06
8.845760005721163381e-04,1.354983311324586160e+06,3.222264263933959592e+04,1.346455976498981472e+06
9.002694417956557055e-04,1.313410537702344358e+06,3.106847160538403841e+04,1.300076606025573099e+06
9.162413035249268025e-04,1.271908505669664592e+06,2.994898049053985960e+04,1.254318733342230786e+06
9.324965252742715592e-04,1.230550933428807184e+06,2.886373914344368313e+04,1.209312401239419589e+06
9.490401341909520316e-04,1.189409487229026854e+06,2.781224632398151152e+04,1.165168834812353831e+06
9.658772466098665020e-04,1.148553548417367041e+06,2.679393457146804212e+04,1.121980332044905983e+06
9.830130696358385742e-04,1.108049993937631138e+06,2.580817547003295113e+04,1.079820529747579712e+06
1.000452902753992636e-03,1.067962991426281631e+06,2.485428528525317233e+04,1.038744990601371042e+06
1.018202139468684601e-03,1.028353809957940131e+06,2.393153093949123650e+04,9.987920570253027836e+05
1.036266268971518766e-03,9.892806473898598924e+05,2.303913628528290064e+04,9.599839209748069989e+05
1.054650877838957633e-03,9.507984751431774348e+05,2.217628862906024005e+04,9.223278648545450997e+05
1.073361651760039708e-03,9.129589011408295482e+05,2.134214544966349786e+04,8.858176367026360240e+05
1.092404377294763302e-03,8.758100514986645430e+05,2.053584124834187605e+04,8.504349318618169054e+05
1.111784943663651120e-03,8.393964714376814663e+05,1.975649446086464741e+04,8.161509626691506710e+05
1.131509344569075690e-03,8.037590457533970475e+05,1.900321435647073667e+04,7.829281064127150457e+05
1.151583680048893577e-03,7.689349390438254923e+05,1.827510784401693309e+04,7.507216290157592157e+05
1.172014158362963670e-03,7.349575557615943253e+05,1.757128610308986390e+04,7.194814866468183463e+05
1.192807097913132618e-03,7.018565200193002820e+05,1.689087095678933110e+04,6.891542086999136955e+05
1.213968929197288072e-03,6.696576749417353421e+05,1.623300090390545120e+04,6.596848623372665606e+05
1.235506196798082101e-03,6.383831012259218842e+05,1.559683673183655628e+04,6.310190901813490782e+05
1.257425561406921551e-03,6.080511544385757297e+05,1.498156663552650934e+04,6.031051982952292310e+05
1.279733801883888846e-03,5.786765204563736916e+05,1.438641077574144037e+04,5.758962514810925350e+05
1.302437817354185458e-03,5.502702883328013122e+05,1.381062521807148187e+04,5.493521083536939695e+05
1.325544629341784963e-03,5.228400397631116211e+05,1.325350520411657817e+04,5.234413021317593521e+05
1.349061383940937994e-03,4.963899542108699679e+05,1.271438771750627893e+04,4.981426486361557618e+05
1.372995354026188691e-03,4.709209286642372608e+05,1.219265331912074544e+04,4.734464458912881091e+05
1.397353941501620856e-03,4.464307108997963369e+05,1.168772723900053825e+04,4.493551259606110980e+05
1.422144679589987118e-03,4.229140450547710061e+05,1.119907972295244508e+04,4.258832346694523585e+05
1.447375235162464682e-03,4.003628282406292856e+05,1.072622564661355136e+04,4.030566520605329424e+05
1.473053411109742162e-03,3.787662768748626113e+05,1.026872341892509939e+04,3.809110254587695235e+05
1.499187148755160015e-03,3.581111013637520373e+05,9.826173209419865088e+03,3.594894627028872492e+05
1.525784530310684119e-03,3.383816877365447581e+05,9.398214542840865761e+03,3.388396153317134012e+05
1.552853781376427409e-03,3.195602848111353815e+05,8.984523315134918448e+03,3.190103567104233662e+05
1.580403273484533603e-03,3.016271954652816057e+05,8.584808290394816140e+03,3.000483140152953565e+05
1.608441526688189974e-03,2.845609705893583596e+05,8.198807149585019943e+03,2.819945343583537615e+05
1.636977212196565187e-03,2.683386043177172542e+05,7.826282163212769774e+03,2.648815489536216483e+05
1.666019155056495992e-03,2.529357291599065065e+05,7.467015570832893900e+03,2.487310477810861194e+05
1.695576336881754334e-03,2.383268096972182393e+05,7.120804751684670919e+03,2.335523007522970438e+05
1.725657898630738197e-03,2.244853335587903857e+05,6.787457276118298068e+03,2.193413748101043748e+05
1.756273143433425979e-03,2.113839984535127878e+05,6.466785933126739110e+03,2.060811156102280947e+05
1.787431539468507758e-03,1.989948941049873829e+05,6.158603829690982820e+03,1.937418005226125824e+05
1.819142722891536066e-03,1.872896780161336064e+05,5.862719663906127607e+03,1.822823341935069184e+05
1.851416500815041824e-03,1.762397440768107772e+05,5.578933272659291106e+03,1.716518498131358647e+05
1.884262854341524004e-03,1.658163831223621964e+05,5.307031557995267576e+03,1.617915937022303697e+05
1.917691941650225256e-03,1.559909346495121717e+05,5.046784893528083558e+03,1.526369990958399430e+05
1.951714101138703325e-03,1.467349290007576346e+05,4.797944110526560507e+03,1.441198866228755796e+05
1.986339854620105747e-03,1.380202194353193045e+05,4.560238155411300795e+03,1.361707537642582611e+05
2.021579910577188648e-03,1.298191036137714982e+05,4.333372501208503309e+03,1.287211249319101335e+05
2.057445167474067794e-03,1.221044341344088316e+05,4.117028379802998643e+03,1.217059218816040229e+05
2.093946717126699344e-03,1.148497178699076176e+05,3.910862883313692691e+03,1.150657794121755869e+05
2.131095848133192101e-03,1.080292039603516459e+05,3.714509957541401491e+03,1.087491788692443806e+05
2.168904049364943701e-03,1.016179604271352291e+05,3.527582279684010700e+03,1.027142159175078850e+05
2.207383013519737241e-03,9.559193947266787291e+04,3.349673983263342507e+03,9.692978186926344642e+04
2.246544640737869070e-03,8.992803163314610720e+04,3.180364153519914908e+03,9.137594478070465266e+04
2.286401042282424495e-03,8.460410903961956501e+04,3.019220986879686279e+03,8.604338451510542654e+04
2.326964544284845001e-03,7.959905813332647085e+04,2.865806472339039374e+03,8.093186216650904680e+04
2.368247691556956639e-03,7.489280226053297520e+04,2.719681428367642638e+03,7.604786163126725296e+04
2.410263251470628337e-03,7.046631464034318924e+04,2.580410710255516733e+03,7.140168665008213429e+04
2.453024217906239323e-03,6.630162226891517639e+04,2.447568394013354009e+03,6.700438881266341195e+04
2.496543815271229805e-03,6.238180137307941914e+04,2.320742745498780550e+03,6.286491777753634960e+04
2.540835502589913666e-03,5.869096507613360882e+04,2.199540796146542107e+03,5.898782652754883748e+04
2.585912977665867640e-03,5.521424397234618664e+04,2.083592369710653202e+03,5.537175477065278392e+04
2.631790181318170718e-03,5.193776033779978752e+04,1.972553435892001517e+03,5.200878597181249643e+04
2.678481301692784387e-03,4.884859672392904758e+04,1.866108700698644043e+03,4.888466065689100651e+04
2.726000778650423343e-03,4.593475968295335770e+04,1.763973385019700800e+03,4.597975107149883843e+04
2.774363308232286659e-03,4.318513938426971436e+04,1.665894176634686801e+03,4.327065847364500951e+04
2.823583847205000767e-03,4.058946586637198925e+04,1.571649379511096640e+03,4.073226120317078312e+04
2.873677617686211036e-03,3.813826265731453896e+04,1.481048312188016780e+03,3.833999282512541686e+04
2.924660111852222730e-03,3.582279846869409084e+04,1.393930030863290995e+03,3.607206245110385498e+04
2.976547096729158064e-03,3.363503764478862286e+04,1.310161472083314720e+03,3.391127615351948771e+04
3.029354619069133791e-03,3.156759000261873007e+04,1.229635117360744289e+03,3.184612743159012098e+04
3.083099010312928198e-03,2.961366067126393318e+04,1.152266290141896661e+03,2.987092671311985396e+04
3.137796891640710472e-03,2.776700047297030687e+04,1.077990190624130037e+03,2.798492884126760327e+04
3.193465179112360292e-03,2.602185736223310232e+04,1.006758774877576798e+03,2.619065037165622562e+04
3.250121088898979237e-03,2.437292936074733734e+04,9.385375683418462813e+02,2.449177240820931547e+04
3.307782142607233744e-03,2.281531939470767975e+04,8.733025026829602666e+02,2.289111897548902198e+04
3.366466172698157240e-03,2.134449236512184143e+04,8.110368433602071718e+02,2.138914542132335191e+04
3.426191328002056377e-03,1.995623473693057895e+04,7.517282710916905444e+02,1.998320250206837954e+04
3.486976079331312057e-03,1.864661687503010035e+04,6.953661641778940066e+02,1.866764164167433773e+04
3.548839225192700671e-03,1.741195828940719366e+04,6.419391140750844897e+02,1.743465336354489773e+04
3.611799897601099089e-03,1.624879591175075620e+04,5.914327024611737897e+02,1.627559647879614568e+04
3.675877567996325892e-03,1.515385546436719596e+04,5.438275466904909763e+02,1.518248138384396225e+04
3.741092053264940751e-03,1.412402594254538417e+04,4.990976245536979263e+02,1.414922892652602059e+04
3.807463521868875884e-03,1.315633717446029186e+04,4.572088695233159683e+02,1.317235931588896347e+04
3.875012500082818633e-03,1.224794039197266102e+04,4.181180305709811478e+02,1.225090443421385862e+04
3.943759878342231219e-03,1.139609170033037663e+04,3.817717799560690537e+02,1.138557897098352805e+04
4.013726917704013054e-03,1.059813832810521126e+04,3.481060583580822936e+02,1.057749903418092435e+04
4.084935256421760169e-03,9.851507445469498634e+03,3.170456438266739951e+02,9.826875320275492413e+03
4.157406916637682200e-03,9.153697417333722115e+03,2.885039380893973657e+02,9.132085818166660829e+03
4.231164311193260329e-03,8.502271229207515717e+03,2.623829783352931031e+02,8.489388648441194164e+03
4.306230250560711369e-03,7.894851908504962921e+03,2.385736905981925133e+02,7.893338009312745271e+03
4.382627949897448076e-03,7.329119674563407898e+03,2.169564167854059917e+02,7.337782685502742424e+03
4.460381036225673744e-03,6.802810602635145187e+03,1.974017711648839395e+02,6.817166218688488698e+03
4.539513555739347998e-03,6.313716567993164062e+03,1.797718722388983963e+02,6.327703278928211148e+03
4.620049981240807561e-03,5.859686226844787598e+03,1.639220045403919528e+02,5.867967618705208224e+03
4.702015219709324879e-03,5.438626806855201721e+03,1.497027314466298833e+02,5.438591247771616509e+03
4.785434620003895315e-03,5.048506520807743073e+03,1.369624291296815102e+02,5.041124839713751498e+03
4.870333980702753508e-03,4.687357362687587738e+03,1.255501591422023040e+02,4.676513495743774911e+03
4.956739558081899207e-03,4.353278139352798462e+03,1.153187079187810156e+02,4.343862138065987892e+03
5.044678074235219023e-03,4.044437536120414734e+03,1.061275827118278414e+02,4.040069135768742854e+03
5.134176725338668312e-03,3.759077095508575439e+03,9.784571846633036785e+01,3.760556076067467529e+03
5.225263190061041514e-03,3.495513956546783447e+03,9.035367092998990302e+01,3.500788094577794709e+03
5.317965638123972084e-03,3.252143265008926392e+03,8.354513330536512683e+01,3.257783868755546791e+03
5.412312739013808334e-03,3.027440149664878845e+03,7.732769364587207406e+01,3.030705798927244359e+03
5.508333670848032312e-03,2.819961199522018433e+03,7.162284962353704998e+01,2.820130648810770708e+03
5.606058129399006836e-03,2.628345414519309998e+03,6.636537022968120425e+01,2.626553412799288708e+03
5.705516337277777641e-03,2.451314551234245300e+03,6.150214760604909259e+01,2.449257785273121954e+03
5.806739053280818123e-03,2.287672901868820190e+03,5.699070372816854757e+01,2.286334187720651244e+03
5.909757581902620564e-03,2.136306486368179321e+03,5.279750976903436310e+01,2.135633037849159336e+03
6.014603783017019589e-03,1.996181663036346436e+03,4.889626616438227558e+01,1.995674328619626294e+03
6.121310081730308751e-03,1.866343208551406860e+03,4.526624453314546059e+01,1.865742950840461162e+03
6.229909478409132242e-03,1.745911914348602295e+03,4.189077256776798919e+01,1.745322538632811984e+03
6.340435558886282907e-03,1.634081693649291992e+03,3.875591956423600948e+01,1.633675333857154101e+03
6.452922504847585436e-03,1.530116361379623413e+03,3.584940640052523264e+01,1.529988296310970554e+03
6.567405104403065304e-03,1.433346015453338623e+03,3.315974740036856616e+01,1.433627591951944169e+03
6.683918762845597952e-03,1.343163207292556763e+03,3.067563152580295238e+01,1.343947623520990419e+03
6.802499513600528472e-03,1.259018884658813477e+03,2.838552090033662267e+01,1.259950785652081777e+03
6.923184029369445006e-03,1.180418207168579102e+03,2.627745386165516805e+01,1.180593733116113071e+03
7.046009633471732314e-03,1.106916299343109131e+03,2.433901520152827658e+01,1.105678172716250856e+03
7.171014311387324640e-03,1.038114000797271729e+03,2.255744907133687960e+01,1.036068675132755743e+03
7.298236722504217525e-03,9.736536450386047363e+02,2.091987528513974581e+01,9.724863667747124509e+02
7.427716212074391040e-03,9.132149667739868164e+02,1.941355053477995440e+01,9.140801215285157468e+02
7.559492823381881027e-03,8.565111408233642578e+02,1.802616538249931821e+01,8.586998403334819159e+02
7.693607310126696769e-03,8.032850146293640137e+02,1.674610252015311573e+01,8.048621559556858074e+02
7.830101149028469154e-03,7.533055553436279297e+02,1.556266496563231705e+01,7.530675796742232251e+02
7.969016552653683874e-03,7.063645949363708496e+02,1.446622651012138228e+01,7.048358955256110221e+02
8.110396482470460036e-03,6.622737231254577637e+02,1.344831420090233465e+01,6.608309156286527468e+02
8.254284662134995024e-03,6.208616113662719727e+02,1.250161320767001882e+01,6.203973345663916916e+02
8.400725591013685420e-03,5.819715108871459961e+02,1.161990917675878521e+01,5.825593336924650885e+02
8.549764557945174065e-03,5.454590835571289062e+02,1.079798240889395089e+01,5.467108673868219739e+02
