# Q(1/A)  I_MAP  dI_MAP
2.628799999999998954e-04 1.446480612468486885e+06 1.406493321957543376e+05
2.675438070964800586e-04 1.481251416861478239e+06 1.396305736441167828e+05
2.722903557352346284e-04 1.515865623882088810e+06 1.385755633916347870e+05
2.771211138506526656e-04 1.550269344235856086e+06 1.374841300147499132e+05
2.820375754200420289e-04 1.584407473383476958e+06 1.363561689085930411e+05
2.870412609256645163e-04 1.618223805777793285e+06 1.351916447079295176e+05
2.921337178249632373e-04 1.651661157101411838e+06 1.339905935225303110e+05
2.973165210291369332e-04 1.684661494315907126e+06 1.327531249713366560e+05
3.025912733902008352e-04 1.717166073288122658e+06 1.314794240004398744e+05
3.079596061966908367e-04 1.749115583712915657e+06 1.301697524704254902e+05
3.134231796781628216e-04 1.780450301004754612e+06 1.288244504994553281e+05
3.189836835186387210e-04 1.811110244783378672e+06 1.274439375492240797e+05
3.246428373791666985e-04 1.841035343531536870e+06 1.260287132418780238e+05
3.304023914296471982e-04 1.870165604955598712e+06 1.245793578969584050e+05
3.362641268900991407e-04 1.898441291533391457e+06 1.230965327786280977e+05
3.422298565815239113e-04 1.925803100687671918e+06 1.215809800444579014e+05
3.483014254865459238e-04 1.952192348979243543e+06 1.200335223885345185e+05
3.544807113199996006e-04 1.977551159670280293e+06 1.184550623728171922e+05
3.607696251096353208e-04 2.001822652967266971e+06 1.168465814422034455e+05
3.671701117871337995e-04 2.024951138213620987e+06 1.152091386202501453e+05
3.736841507895997147e-04 2.046882307265342679e+06 1.135438688839747192e+05
3.803137566717306600e-04 2.067563428249138873e+06 1.118519812179291184e+05
3.870609797288466049e-04 2.086943538871736731e+06 1.101347563491668843e+05
3.939279066309686757e-04 2.104973638421841431e+06 1.083935441666893894e+05
4.009166610681532024e-04 2.121606877582904883e+06 1.066297608304647583e+05
4.080294044072686516e-04 2.136798745155511424e+06 1.048448855769294314e+05
4.152683363604304980e-04 2.150507250773580745e+06 1.030404572296656115e+05
4.226356956652892443e-04 2.162693102688448038e+06 1.012180704256441823e+05
4.301337607773916827e-04 2.173319879689975176e+06 9.937937156913235958e+04
4.377648505748250288e-04 2.182354196234053466e+06 9.752605452706305368e+04
4.455313250753588166e-04 2.189765859851603396e+06 9.565985608136706287e+04
4.534355861663153810e-04 2.195528019925538450e+06 9.378255115521537664e+04
4.614800783473826246e-04 2.199617306939403992e+06 9.189594783177887439e+04
4.696672894866124712e-04 2.202013961324415635e+06 9.000188218539278023e+04
4.779997515898240165e-04 2.202701951060828287e+06 8.810221294652315555e+04
4.864800415836623669e-04 2.201669077224631328e+06 8.619881602280521474e+04
4.951107821125495237e-04 2.198907066711809952e+06 8.429357889993688150e+04
5.038946423497687099e-04 2.194411651419478934e+06 8.238839494678382471e+04
5.128343388229472275e-04 2.188182633216292132e+06 8.048515765002022090e+04
5.219326362541750136e-04 2.180223934093290009e+06 7.858575480423629051e+04
5.311923484150342292e-04 2.170543630950565916e+06 7.669206268387047749e+04
5.406163389967977035e-04 2.159153974544760771e+06 7.480594022369265440e+04
5.502075224960606718e-04 2.146071392197045963e+06 7.292922323462646455e+04
5.599688651160921425e-04 2.131316473940261640e+06 7.106371868170076050e+04
5.699033856841702241e-04 2.114913941867578775e+06 6.921119905059090524e+04
5.800141565851962052e-04 2.096892602532123914e+06 6.737339682907344832e+04
5.903043047118737259e-04 2.077285282337712590e+06 6.555199912900263735e+04
6.007770124317377523e-04 2.056128745954161277e+06 6.374864247360536683e+04
6.114355185713500488e-04 2.033463597886176314e+06 6.196490777449986490e+04
6.222831194179451013e-04 2.009334167422072496e+06 6.020231552152150107e+04
6.333231697388565229e-04 1.983788377286574570e+06 5.846232120774457871e+04
6.445590838190193858e-04 1.956877596420484129e+06 5.674631101070723525e+04
6.559943365168885952e-04 1.928656477407739498e+06 5.505559775018951041e+04
6.676324643390821930e-04 1.899182779167480767e+06 5.339141714121319819e+04
6.794770665340949109e-04 1.868517175623331917e+06 5.175492436037658626e+04
6.915318062054173157e-04 1.836723051154668909e+06 5.014719094218533428e+04
7.038004114443945905e-04 1.803866283723427681e+06 4.856920202122545743e+04
7.162866764831956386e-04 1.770015016654736362e+06 4.702185393484544329e+04
7.289944628682249296e-04 1.735239420129788574e+06 4.550595220068861090e+04
7.419277006543606749e-04 1.699611443523625610e+06 4.402220988174936065e+04
7.550903896203792903e-04 1.663204559788614744e+06 4.257124635202042555e+04
7.684866005059365086e-04 1.626093503145846771e+06 4.115358647410739650e+04
7.821204762705039103e-04 1.588354001400210895e+06 3.976966020043208846e+04
7.959962333746297206e-04 1.550062504240712151e+06 3.841980260843493306e+04
8.101181630839421549e-04 1.511295908924580552e+06 3.710425437977375987e+04
8.244906327962760878e-04 1.472131284771881532e+06 3.582316273265897325e+04
8.391180873923520609e-04 1.432645597915723920e+06 3.457658281522940524e+04
8.540050506104184371e-04 1.392915437762324233e+06 3.336447956638853793e+04
8.691561264452727070e-04 1.353016746613607742e+06 3.218673004918993320e+04
8.845760005721163381e-04 1.313024553894163109e+06 3.104312625868623581e+04
9.002694417956557055e-04 1.273012716402545571e+06 2.993337840390311248e+04
9.162413035249268025e-04 1.233053665975263342e+06 2.885711865943042721e+04
9.324965252742715592e-04 1.193218165909814648e+06 2.781390537792809482e+04
9.490401341909520316e-04 1.153575077441442758e+06 2.680322774960193783e+04
9.658772466098665020e-04 1.114191137506708503e+06 2.582451088886060461e+04
9.830130696358385742e-04 1.075130748956170864e+06 2.487712132166513038e+04
1.000452902753992636e-03 1.036455784298910759e+06 2.396037283995310281e+04
1.018202139468684601e-03 9.982254039739090949e+05 2.307353268193519762e+04
1.036266268971518766e-03 9.604958900473508984e+05 2.221582798980926600e+04
1.054650877838957633e-03 9.233204961329028010e+05 2.138645248799962428e+04
1.073361651760039708e-03 8.867493142230529338e+05 2.058457331872335999e+04
1.092404377294763302e-03 8.508291590057052672e+05 1.980933796471646565e+04
1.111784943663651120e-03 8.156034701218791306e+05 1.905988118322220180e+04
1.131509344569075690e-03 7.811122326987348497e+05 1.833533187239543986e+04
1.151583680048893577e-03 7.473919163668565452e+05 1.763481978663369591e+04
1.172014158362963670e-03 7.144754328467417508e+05 1.695748201907966359e+04
1.192807097913132618e-03 6.823921120616141707e+05 1.630246916802258784e+04
1.213968929197288072e-03 6.511676966091860086e+05 1.566895110935079902e+04
1.235506196798082101e-03 6.208243543014843017e+05 1.505612230051754705e+04
1.257425561406921551e-03 5.913807083604261279e+05 1.446320654874622596e+04
1.279733801883888846e-03 5.628518847407102585e+05 1.388946118513152214e+04
1.302437817354185458e-03 5.352495759388059378e+05 1.333418059504953453e+04
1.325544629341784963e-03 5.085821205418482423e+05 1.279669906722199448e+04
1.349061383940937994e-03 4.828545976694300771e+05 1.227639293376966270e+04
1.372995354026188691e-03 4.580689353708922863e+05 1.177268198715763538e+04
1.397353941501620856e-03 4.342240319571867585e+05 1.128503017045983688e+04
1.422144679589987118e-03 4.113158891717195511e+05 1.081294554975575193e+04
1.447375235162464682e-03 3.893377560410909355e+05 1.035597958814555022e+04
1.473053411109742162e-03 3.682802821919694543e+05 9.913725751785561442e+03
1.499187148755160015e-03 3.481316793776154518e+05 9.485817486849000488e+03
1.525784530310684119e-03 3.288778899244628847e+05 9.071925616398601051e+03
1.552853781376427409e-03 3.105027607893720269e+05 8.671755212289393967e+03
1.580403273484533603e-03 2.929882219062522054e+05 8.285042004063821878e+03
1.608441526688189974e-03 2.763144675049781799e+05 7.911548393883101198e+03
1.636977212196565187e-03 2.604601390951946378e+05 7.551059149589645131e+03
1.666019155056495992e-03 2.454025088341012597e+05 7.203376853360501627e+03
1.695576336881754334e-03 2.311176620284914970e+05 6.868317188319900197e+03
1.725657898630738197e-03 2.175806775669977069e+05 6.545704145712579702e+03
1.756273143433425979e-03 2.047658051321879029e+05 6.235365242672015484e+03
1.787431539468507758e-03 1.926466381031945348e+05 5.937126839327437665e+03
1.819142722891536066e-03 1.811962811306342483e+05 5.650809649185339367e+03
1.851416500815041824e-03 1.703875114439949393e+05 5.376224536765029370e+03
1.884262854341524004e-03 1.601929330336228013e+05 5.113168696737467144e+03
1.917691941650225256e-03 1.505851229404509068e+05 4.861422310327375271e+03
1.951714101138703325e-03 1.415367689795345068e+05 4.620745767554398299e+03
1.986339854620105747e-03 1.330207983200699091e+05 4.390877541105218370e+03
2.021579910577188648e-03 1.250104964457824826e+05 4.171532786696224321e+03
2.057445167474067794e-03 1.174796161163002253e+05 3.962402730666089610e+03
2.093946717126699344e-03 1.104024760552346706e+05 3.763154887218993281e+03
2.131095848133192101e-03 1.037540491878837347e+05 3.573434125117754320e+03
2.168904049364943701e-03 9.751004034908115864e+04 3.392864574367868499e+03
2.207383013519737241e-03 9.164695348027348518e+04 3.221052334137355956e+03
2.246544640737869070e-03 8.614214841999113560e+04 3.057588909120970129e+03
2.286401042282424495e-03 8.097388748694956303e+04 2.902055270218801979e+03
2.326964544284845001e-03 7.612137212796509266e+04 2.754026402808833609e+03
2.368247691556956639e-03 7.156476998662948608e+04 2.613076185826049368e+03
2.410263251470628337e-03 6.728523280747234821e+04 2.478782421827631424e+03
2.453024217906239323e-03 6.326490566202998161e+04 2.350731835864402456e+03
2.496543815271229805e-03 5.948692802989482880e+04 2.228524859617766651e+03
2.540835502589913666e-03 5.593542731611430645e+04 2.111780030738021196e+03
2.585912977665867640e-03 5.259550542336702347e+04 2.000137861993512843e+03
2.631790181318170718e-03 4.945321902868151665e+04 1.893264058837514767e+03
2.678481301692784387e-03 4.649555423086881638e+04 1.790852004481288986e+03
2.726000778650423343e-03 4.371039625395834446e+04 1.692624463072189428e+03
2.774363308232286659e-03 4.108649489216506481e+04 1.598334491145112679e+03
2.823583847205000767e-03 3.861342637822031975e+04 1.507765578215888127e+03
2.873677617686211036e-03 3.628155235251784325e+04 1.420731068979225938e+03
2.924660111852222730e-03 3.408197658911347389e+04 1.337072938310477184e+03
2.976547096729158064e-03 3.200650010728836060e+04 1.256660011443535723e+03
3.029354619069133791e-03 3.004757527807354927e+04 1.179385726716587214e+03
3.083099010312928198e-03 2.819825949242711067e+04 1.105165546182144908e+03
3.137796891640710472e-03 2.645216892209649086e+04 1.033934118256465808e+03
3.193465179112360292e-03 2.480343285807967186e+04 9.656422884759450653e+02
3.250121088898979237e-03 2.324664907538890839e+04 9.002540503709775521e+02
3.307782142607233744e-03 2.177684060534834862e+04 8.377435176214934245e+02
3.366466172698157240e-03 2.038941427618265152e+04 7.780919826013627016e+02
3.426191328002056377e-03 1.908012130039930344e+04 7.212851235602321367e+02
3.486976079331312057e-03 1.784502015572786331e+04 6.673104010264295312e+02
3.548839225192700671e-03 1.668044195872545242e+04 6.161546789703485274e+02
3.611799897601099089e-03 1.558295846638083458e+04 5.678020918686329424e+02
3.675877567996325892e-03 1.454935280326008797e+04 5.222321728283658331e+02
3.741092053264940751e-03 1.357659296885132790e+04 4.794182421422266884e+02
3.807463521868875884e-03 1.266180812972784042e+04 4.393260602715643017e+02
3.875012500082818633e-03 1.180226766934990883e+04 4.019127266506374099e+02
3.943759878342231219e-03 1.099536292856931686e+04 3.671258230904745119e+02
4.013726917704013054e-03 1.023859153592586517e+04 3.349027817704861150e+02
4.084935256421760169e-03 9.529544210255146027e+03 3.051704709037974794e+02
4.157406916637682200e-03 8.865893872022628784e+03 2.778449925442187691e+02
4.231164311193260329e-03 8.245386919766664505e+03 2.528317028094501495e+02
4.306230250560711369e-03 7.665836456149816513e+03 2.300254661393643119e+02
4.382627949897448076e-03 7.125117290824651718e+03 2.093111825550133460e+02
4.460381036225673744e-03 6.621162516325712204e+03 1.905646293723850420e+02
4.539513555739347998e-03 6.151961438000202179e+03 1.736536700729983806e+02
4.620049981240807561e-03 5.715558663487434387e+03 1.584398664248856221e+02
4.702015219709324879e-03 5.310054154992103577e+03 1.447805142168845691e+02
4.785434620003895315e-03 4.933604028284549713e+03 1.325310690531611897e+02
4.870333980702753508e-03 4.584421940952539444e+03 1.215478688042622792e+02
4.956739558081899207e-03 4.260780862182378769e+03 1.116910002618373312e+02
5.044678074235219023e-03 3.961015098005533218e+03 1.028271015407868845e+02
5.134176725338668312e-03 3.683522399008274078e+03 9.483187798945991176e+01
5.225263190061041514e-03 3.426766033470630646e+03 8.759212709870273272e+01
5.317965638123972084e-03 3.189276705652475357e+03 8.100712050235163986e+01
5.412312739013808334e-03 2.969654229074716568e+03 7.498928214739224529e+01
5.508333670848032312e-03 2.766568889260292053e+03 6.946417210261776631e+01
5.606058129399006836e-03 2.578762386769056320e+03 6.436986620533686221e+01
5.705516337277777641e-03 2.405048391044139862e+03 5.965586537176704240e+01
5.806739053280818123e-03 2.244312611788511276e+03 5.528168659458301448e+01
5.909757581902620564e-03 2.095512401670217514e+03 5.121528350289810305e+01
6.014603783017019589e-03 1.957675889492034912e+03 4.743143063444354368e+01
6.121310081730308751e-03 1.829900668144226074e+03 4.391016354750406236e+01
6.229909478409132242e-03 1.711352019667625427e+03 4.063536348056645409e+01
6.340435558886282907e-03 1.601260763436555862e+03 3.759351889776288402e+01
6.452922504847585436e-03 1.498920724809169769e+03 3.477270134048265504e+01
6.567405104403065304e-03 1.403685901641845703e+03 3.216176351096142838e+01
6.683918762845597952e-03 1.314967351406812668e+03 2.974975047287358620e+01
6.802499513600528472e-03 1.232229865640401840e+03 2.752552893578214466e+01
6.923184029369445006e-03 1.154988494977355003e+03 2.547758770529034322e+01
7.046009633471732314e-03 1.082804973259568214e+03 2.359401774475563585e+01
7.171014311387324640e-03 1.015284058421850204e+03 2.186260792273203180e+01
7.298236722504217525e-03 9.520699215829372406e+02 2.027103631237165615e+01
7.427716212074391040e-03 8.928425429165363312e+02 1.880712357555719549e+01
7.559492823381881027e-03 8.373142181858420372e+02 1.745909165561625187e+01
7.693607310126696769e-03 7.852261915542185307e+02 1.621581499007177030e+01
7.830101149028469154e-03 7.363454294453840703e+02 1.506701908937205658e+01
7.969016552653683874e-03 6.904616223983466625e+02 1.400343348770508101e+01
8.110396482470460036e-03 6.473843659758567810e+02 1.301685663557613992e+01
8.254284662134995024e-03 6.069405670166015625e+02 1.210016865888597160e+01
8.400725591013685420e-03 5.689721294790506363e+02 1.124727190636437690e+01
8.549764557945174065e-03 5.333338271975517273e+02 1.045300128675390994e+01
8.701447655246524748e-03 4.998914587795734406e+02 9.712990971040570187e+00
8.855821792967876957e-03 4.685202270448207855e+02 9.023519091216618548e+00
9.012934713400030246e-03 4.391033627092838287e+02 8.381371650694790176e+00
9.172835005839421671e-03 4.115309465825557709e+02 7.783703765658315454e+00
9.335572121614958002e-03 3.856989445090293884e+02 7.227917419434727542e+00
9.501196389381580745e-03 3.615084468722343445e+02 6.711565869792275763e+00
9.669759030685025694e-03 3.388650442957878113e+02 6.232296704810905474e+00
9.841312175802793827e-03 3.176784030795097351e+02 5.787806406828901906e+00
1.001590887986618383e-02 2.978618864417076111e+02 5.375820718250878372e+00
1.019360313926825738e-02 2.793323702812194824e+02 4.994105870406055026e+00
1.037444990836298292e-02 2.620101144313812256e+02 4.640479088746732650e+00
1.055850511646059219e-02 2.458186605572700500e+02 4.312840545034621442e+00
1.074582568512450452e-02 2.306848631501197815e+02 4.009203336732083400e+00
1.093646954577506998e-02 2.165388756990432739e+02 3.727701648807148160e+00
1.113049565760565116e-02 2.033141998052597046e+02 3.466621364395314320e+00
1.132796402581655142e-02 1.909477595090866089e+02 3.224411808756935560e+00
1.152893572017243441e-02 1.793798911571502686e+02 2.999654114175082764e+00
1.173347289388896805e-02 1.685544178485870361e+02 2.791099680548477568e+00
1.194163880285455982e-02 1.584186458587646484e+02 2.597607788551715036e+00
1.215349782519309536e-02 1.489233326911926270e+02 2.418138340932683761e+00
1.236911548117373104e-02 1.400226902961730957e+02 2.251744759440981181e+00
1.258855845347394038e-02 1.316742644309997559e+02 2.097534403467668618e+00
1.281189460780202474e-02 1.238388787508010864e+02 1.954668335550037384e+00
1.303919301388548752e-02 1.164804798364639282e+02 1.822322145425715911e+00
1.327052396683181881e-02 1.095660276412963867e+02 1.699696861615834997e+00
1.350595900886817843e-02 1.030652630329132080e+02 1.586052951462765703e+00
1.374557095146680674e-02 9.695059680938720703e+01 1.480655547664641025e+00
1.398943389786295836e-02 9.119686293601989746e+01 1.382791809961740226e+00
1.423762326597232709e-02 8.578111898899078369e+01 1.291819081491925036e+00
1.449021581171507089e-02 8.068244934082031250e+01 1.207160819299708532e+00
1.474728965275358059e-02 7.588175582885742188e+01 1.128279251162368713e+00
1.500892429265147411e-02 7.136156320571899414e+01 1.054694733771489146e+00
1.527520064546111778e-02 6.710579013824462891e+01 9.860128673154923140e-01
1.554620106074739751e-02 6.309960412979125977e+01 9.218729310093307650e-01
1.582200934905544226e-02 5.932923698425292969e+01 8.620076861470333807e-01
1.610271080783016659e-02 5.578184700012207031e+01 8.061060577358040158e-01
1.638839224779563980e-02 5.244540643692016602e+01 7.539644367118198964e-01
1.667914201980251476e-02 4.930850791931152344e+01 7.053918536787394666e-01
1.697505004215169727e-02 4.636035251617431641e+01 6.602024761922000717e-01
1.727620782840279950e-02 4.359063267707824707e+01 6.181540345256921754e-01
1.758270851567595924e-02 4.098949766159057617e+01 5.791007390908985419e-01
1.789464689345575052e-02 3.854748010635375977e+01 5.428141641454052868e-01
1.821211943290607788e-02 3.625547051429748535e+01 5.091366450089952478e-01
1.853522431670525869e-02 3.410470294952392578e+01 4.778534959828659168e-01
1.886406146941029330e-02 3.208675360679626465e+01 4.487769566677164979e-01
1.919873258835989166e-02 3.019354319572448730e+01 4.217619567876640385e-01
1.953934117512577326e-02 2.841731405258178711e+01 3.966334771982503726e-01
1.988599256752190611e-02 2.675063061714172363e+01 3.732155623189248317e-01
2.023879397218167342e-02 2.518646049499511719e+01 3.514051297086410730e-01
2.059785449771293214e-02 2.371811199188232422e+01 3.310647698501570924e-01
2.096328518844138566e-02 2.233923721313476562e+01 3.121030193345369907e-01
2.133519905875250547e-02 2.104393529891967773e+01 2.944558611241940294e-01
2.171371112804276401e-02 1.982661914825439453e+01 2.780031773227825687e-01
2.209893845629094800e-02 1.868212938308715820e+01 2.626789754446004488e-01
2.249100018026054665e-02 1.760564756393432617e+01 2.484617593305041561e-01
2.289001755034435551e-02 1.659271860122680664e+01 2.351711737374103661e-01
2.329611396806288703e-02 1.563927388191223145e+01 2.229045353615884129e-01
2.370941502422790198e-02 1.474151754379272461e+01 2.114703195366240407e-01
2.413004853778307271e-02 1.389603281021118164e+01 2.009062263036617002e-01
2.455814459533374114e-02 1.309962248802185059e+01 1.911170487380949856e-01
2.499383559137794211e-02 1.234937238693237305e+01 1.820182566446374994e-01
2.543725626925121344e-02 1.164263319969177246e+01 1.736305056441245775e-01
2.588854376279775202e-02 1.097691679000854492e+01 1.658547014179033718e-01
2.634783763878096111e-02 1.034992194175720215e+01 1.586485819621270554e-01
2.681527994004637844e-02 9.759515762329101562e+00 1.520304269954599330e-01
2.729101522945025227e-02 9.203701019287109375e+00 1.459626124338545272e-01
2.777519063456760501e-02 8.680563449859619141e+00 1.403126957473578851e-01
